## SPECTRUM TYPE:
Spectroscopic measurement

## DATE:
14/Jan/1980

## COMMENTS:

## NUMBER OF SPECTRUM:
1

## ELLIPSOMETRIC CONFIGURATION:
  0 ø : Modulator
+45 ø : Analyser

## UNIT:
eV


# SPECTRUM:
1

# START TIME:
15:10:56

# END TIME:
15:14:02

# INCIDENCE ANGLE:
70.00 ø

# ACCUMULATION NUMBER:
1

# INTEGRATION TIME:
200 ms

# FIRST POINT:
1.5000 eV

# LAST POINT:
5.0000 eV

# INCREMENT:
0.050000 eV

# NUMBER OF POINTS:
71

# DATA:
eV S0 Psi Delta îr îi n k Is Ic Hv 
1.5000 91.255 15.522 135.994 11.085 10.340 3.622 1.427 0.35827 -0.37092 337 
1.5500 91.547 15.668 134.000 10.516 10.441 3.559 1.467 0.37411 -0.36127 384 
1.6000 88.870 15.763 132.158 10.002 10.456 3.498 1.495 0.38762 -0.35096 416 
1.6500 87.289 15.865 130.284 9.491 10.445 3.435 1.520 0.40120 -0.34005 391 
1.7000 87.986 15.861 128.626 9.078 10.321 3.378 1.528 0.41077 -0.32822 378 
1.7500 87.887 15.904 127.189 8.720 10.245 3.330 1.538 0.41989 -0.31859 363 
1.8000 86.937 15.894 125.734 8.388 10.108 3.280 1.541 0.42759 -0.30764 343 
1.8500 87.525 15.854 124.453 8.118 9.955 3.238 1.537 0.43339 -0.29734 337 
1.9000 88.020 15.789 123.206 7.878 9.783 3.197 1.530 0.43816 -0.28679 328 
1.9500 87.026 15.707 121.953 7.655 9.595 3.157 1.520 0.44225 -0.27585 319 
2.0000 87.472 15.726 121.215 7.503 9.534 3.133 1.521 0.44624 -0.27042 311 
2.0500 87.429 15.678 120.454 7.376 9.421 3.110 1.515 0.44857 -0.26375 307 
2.1000 87.964 15.638 119.925 7.293 9.336 3.094 1.509 0.44994 -0.25899 301 
2.1500 89.455 15.625 119.478 7.216 9.281 3.080 1.507 0.45161 -0.25529 297 
2.2000 88.436 15.654 119.176 7.149 9.269 3.070 1.509 0.45372 -0.25333 293 
2.2500 87.568 15.710 118.892 7.075 9.278 3.061 1.515 0.45643 -0.25188 289 
2.3000 89.207 15.791 118.866 7.036 9.331 3.060 1.525 0.45866 -0.25284 287 
2.3500 87.852 15.905 118.758 6.968 9.397 3.055 1.538 0.46210 -0.25361 280 
2.4000 88.487 16.098 118.665 6.868 9.518 3.050 1.560 0.46751 -0.25559 278 
2.4500 87.047 16.269 118.511 6.763 9.615 3.043 1.580 0.47262 -0.25673 266 
2.5000 87.944 16.543 118.466 6.628 9.794 3.038 1.612 0.47989 -0.26019 261 
2.5500 87.390 16.820 118.287 6.461 9.955 3.027 1.644 0.48781 -0.26251 260 
2.6000 89.105 17.102 118.162 6.297 10.123 3.018 1.677 0.49560 -0.26531 258 
2.6500 86.703 17.465 117.979 6.073 10.332 3.005 1.719 0.50565 -0.26862 251 
2.7000 93.174 17.809 117.818 5.854 10.526 2.992 1.759 0.51508 -0.27177 258 
2.7500 87.713 18.211 117.436 5.554 10.712 2.968 1.804 0.52694 -0.27356 256 
2.8000 92.281 18.633 117.074 5.236 10.900 2.944 1.852 0.53915 -0.27559 260 
2.8500 87.739 19.057 116.724 4.907 11.079 2.918 1.899 0.55130 -0.27757 259 
2.9000 87.113 19.589 116.312 4.486 11.290 2.884 1.957 0.56629 -0.28003 259 
2.9500 90.279 20.091 115.857 4.066 11.452 2.848 2.011 0.58063 -0.28140 259 
3.0000 87.246 20.738 115.278 3.509 11.630 2.798 2.078 0.59890 -0.28281 259 
3.0500 87.880 21.340 114.664 2.969 11.741 2.746 2.138 0.61607 -0.28289 260 
3.1000 87.768 21.868 114.075 2.482 11.794 2.696 2.188 0.63119 -0.28202 260 
3.1500 87.761 22.729 113.113 1.683 11.817 2.610 2.264 0.65553 -0.27979 263 
3.2000 89.806 23.604 111.874 0.854 11.682 2.507 2.330 0.68100 -0.27340 268 
3.2500 89.412 24.604 110.164 -0.072 11.333 2.373 2.388 0.71069 -0.26098 274 
3.3000 90.843 25.762 107.423 -1.059 10.570 2.187 2.417 0.74695 -0.23441 283 
3.3500 90.959 26.487 103.455 -1.532 9.402 1.999 2.351 0.77644 -0.18576 280 
3.4000 87.429 26.593 99.423 -1.454 8.356 1.875 2.229 0.78978 -0.13107 272 
3.4500 89.048 26.191 96.385 -1.098 7.703 1.828 2.107 0.78719 -0.08809 270 
3.5000 88.893 25.786 94.500 -0.809 7.346 1.814 2.025 0.78098 -0.06146 272 
3.5500 88.624 25.476 93.352 -0.610 7.145 1.811 1.973 0.77528 -0.04541 274 
3.6000 89.851 25.369 92.370 -0.525 6.966 1.797 1.938 0.77359 -0.03201 276 
3.6500 90.924 25.375 91.405 -0.495 6.785 1.776 1.910 0.77416 -0.01899 278 
3.7000 88.222 25.408 90.528 -0.480 6.623 1.755 1.887 0.77509 -0.00715 280 
3.7500 88.692 25.424 89.640 -0.455 6.464 1.736 1.862 0.77546 0.00487 284 
3.8000 88.129 25.499 88.853 -0.459 6.320 1.714 1.843 0.77697 0.01556 288 
3.8500 92.501 25.618 88.036 -0.478 6.170 1.690 1.826 0.77928 0.02673 293 
3.9000 87.818 25.854 87.302 -0.547 6.023 1.658 1.816 0.78400 0.03695 296 
3.9500 87.949 25.988 86.611 -0.571 5.896 1.636 1.802 0.78638 0.04657 300 
4.0000 89.090 26.190 85.857 -0.617 5.752 1.607 1.789 0.79001 0.05722 305 
4.0500 88.238 26.571 85.087 -0.727 5.583 1.566 1.783 0.79719 0.06852 309 
4.1000 89.747 26.951 84.111 -0.816 5.383 1.521 1.769 0.80375 0.08291 314 
4.1500 88.273 27.445 82.988 -0.927 5.146 1.467 1.754 0.81193 0.09986 316 
4.2000 88.504 27.908 81.400 -0.982 4.852 1.409 1.722 0.81794 0.12370 318 
4.2500 89.268 28.454 79.293 -1.011 4.487 1.339 1.675 0.82321 0.15565 321 
4.3000 89.735 28.769 76.584 -0.914 4.107 1.283 1.600 0.82073 0.19576 326 
4.3500 89.006 28.730 73.909 -0.723 3.816 1.257 1.518 0.80999 0.23365 332 
4.4000 89.819 28.639 71.400 -0.541 3.572 1.239 1.441 0.79736 0.26834 340 
4.4500 87.586 28.426 69.110 -0.354 3.382 1.234 1.370 0.78223 0.29854 348 
4.5000 89.347 28.115 66.619 -0.147 3.197 1.236 1.294 0.76302 0.32989 360 
4.5500 95.925 27.699 64.239 0.062 3.044 1.246 1.221 0.74132 0.35774 371 
4.6000 87.718 27.157 62.155 0.268 2.935 1.268 1.157 0.71818 0.37937 381 
4.6500 89.005 26.424 60.383 0.487 2.871 1.304 1.101 0.69290 0.39389 395 
4.7000 88.601 25.845 58.892 0.657 2.811 1.331 1.056 0.67183 0.40541 408 
4.7500 87.674 25.221 57.829 0.815 2.785 1.363 1.021 0.65260 0.41050 420 
4.8000 85.751 24.609 56.933 0.963 2.767 1.395 0.992 0.63456 0.41314 431 
4.8500 87.611 23.920 56.183 1.121 2.762 1.432 0.964 0.61587 0.41255 444 
4.9000 86.385 23.283 55.870 1.258 2.781 1.468 0.947 0.60109 0.40742 457 
4.9500 87.364 22.800 55.577 1.364 2.789 1.495 0.933 0.58936 0.40388 472 
5.0000 83.687 22.295 55.181 1.477 2.788 1.522 0.916 0.57634 0.40085 485 

# MINIMA:
1.50 83.687 15.522 55.181 -1.532 2.762 1.234 0.916 0.35827 -0.37092 251 

# MAXIMA:
5.00 95.925 28.769 135.994 11.085 11.817 3.622 2.417 0.82321 0.41314 485 

# PEAKS:

# END SPECTRUM

