## SPECTRUM TYPE:
Spectroscopic measurement

## DATE:
14/Jan/1980

## COMMENTS:

## NUMBER OF SPECTRUM:
1

## ELLIPSOMETRIC CONFIGURATION:
  0 ø : Modulator
+45 ø : Analyser

## UNIT:
eV


# SPECTRUM:
1

# START TIME:
15:04:09

# END TIME:
15:07:13

# INCIDENCE ANGLE:
70.00 ø

# ACCUMULATION NUMBER:
1

# INTEGRATION TIME:
200 ms

# FIRST POINT:
1.5000 eV

# LAST POINT:
5.0000 eV

# INCREMENT:
0.050000 eV

# NUMBER OF POINTS:
71

# DATA:
eV S0 Psi Delta îr îi n k Is Ic Hv 
1.5000 91.158 28.918 117.342 -4.150 14.286 2.316 3.084 0.75195 -0.38881 330 
1.5500 92.391 29.288 114.954 -4.434 13.129 2.171 3.024 0.77367 -0.36001 381 
1.6000 92.302 29.256 112.648 -4.238 12.148 2.077 2.924 0.78700 -0.32837 415 
1.6500 88.233 29.179 110.252 -3.978 11.229 1.992 2.819 0.79872 -0.29470 388 
1.7000 88.427 29.338 107.998 -3.913 10.393 1.896 2.740 0.81244 -0.26395 375 
1.7500 87.639 29.306 105.744 -3.676 9.663 1.825 2.647 0.82164 -0.23163 361 
1.8000 87.680 29.051 103.569 -3.294 9.065 1.782 2.544 0.82530 -0.19918 341 
1.8500 87.863 28.850 101.219 -2.954 8.460 1.733 2.441 0.82910 -0.16446 336 
1.9000 87.937 28.611 99.116 -2.630 7.974 1.698 2.348 0.83015 -0.13320 327 
1.9500 89.853 28.388 96.997 -2.333 7.519 1.664 2.259 0.83031 -0.10190 320 
2.0000 89.682 28.183 95.048 -2.075 7.131 1.636 2.180 0.82937 -0.07327 312 
2.0500 88.288 27.871 93.210 -1.785 6.808 1.621 2.100 0.82522 -0.04628 308 
2.1000 88.417 27.537 91.336 -1.501 6.502 1.608 2.022 0.81968 -0.01911 302 
2.1500 89.014 27.161 89.629 -1.225 6.250 1.604 1.949 0.81229 0.00526 298 
2.2000 87.944 26.923 88.108 -1.034 6.022 1.593 1.890 0.80699 0.02666 294 
2.2500 88.142 26.615 86.702 -0.830 5.832 1.591 1.833 0.79973 0.04608 291 
2.3000 89.547 26.426 85.389 -0.686 5.649 1.582 1.786 0.79450 0.06407 290 
2.3500 87.964 26.251 84.123 -0.556 5.478 1.573 1.741 0.78922 0.08124 283 
2.4000 90.157 26.000 82.882 -0.403 5.327 1.572 1.695 0.78194 0.09765 282 
2.4500 89.015 25.984 81.674 -0.341 5.158 1.554 1.660 0.77937 0.11405 271 
2.5000 88.054 25.833 80.437 -0.232 5.006 1.546 1.619 0.77352 0.13031 266 
2.5500 87.370 25.749 79.174 -0.147 4.849 1.534 1.581 0.76865 0.14700 265 
2.6000 89.852 25.767 77.595 -0.083 4.647 1.511 1.538 0.76470 0.16820 265 
2.6500 87.356 25.693 76.173 0.002 4.482 1.497 1.497 0.75873 0.18674 258 
2.7000 89.976 25.743 74.592 0.055 4.292 1.474 1.456 0.75432 0.20789 266 
2.7500 89.213 25.682 72.964 0.142 4.117 1.460 1.410 0.74684 0.22885 266 
2.8000 87.318 25.607 71.286 0.232 3.945 1.446 1.364 0.73829 0.25010 269 
2.8500 89.612 25.494 69.435 0.336 3.768 1.435 1.313 0.72751 0.27295 271 
2.9000 88.593 25.333 67.563 0.448 3.601 1.428 1.261 0.71492 0.29521 271 
2.9500 87.268 25.175 65.673 0.556 3.440 1.421 1.210 0.70159 0.31718 271 
3.0000 90.407 24.974 63.696 0.672 3.282 1.418 1.157 0.68620 0.33920 273 
3.0500 90.694 24.773 61.649 0.784 3.126 1.415 1.104 0.66965 0.36134 275 
3.1000 87.489 24.441 59.224 0.930 2.956 1.419 1.041 0.64726 0.38548 275 
3.1500 87.815 24.206 56.999 1.042 2.802 1.420 0.987 0.62727 0.40736 280 
3.2000 88.351 23.837 54.359 1.184 2.635 1.427 0.923 0.60084 0.43081 286 
3.2500 89.346 23.274 51.513 1.358 2.472 1.445 0.855 0.56825 0.45179 295 
3.3000 88.572 22.544 48.267 1.558 2.297 1.472 0.780 0.52848 0.47142 306 
3.3500 88.674 21.362 45.132 1.823 2.154 1.524 0.707 0.48085 0.47865 303 
3.4000 87.519 19.931 43.332 2.110 2.094 1.594 0.657 0.43984 0.46622 295 
3.4500 89.601 18.722 43.152 2.346 2.112 1.659 0.637 0.41581 0.44354 292 
3.5000 88.996 17.734 43.608 2.546 2.155 1.715 0.628 0.40022 0.42015 293 
3.5500 87.865 16.996 44.100 2.702 2.189 1.758 0.623 0.38907 0.40149 294 
3.6000 89.159 16.340 44.643 2.847 2.222 1.797 0.618 0.37942 0.38417 296 
3.6500 89.737 15.741 45.229 2.985 2.253 1.834 0.614 0.37074 0.36779 298 
3.7000 87.998 15.153 45.988 3.125 2.290 1.871 0.612 0.36291 0.35061 300 
3.7500 88.917 14.616 46.741 3.259 2.323 1.905 0.609 0.35563 0.33466 304 
3.8000 87.992 14.149 47.807 3.383 2.372 1.938 0.612 0.35122 0.31839 308 
3.8500 89.716 13.730 49.004 3.501 2.427 1.970 0.616 0.34803 0.30250 313 
3.9000 88.554 13.292 50.178 3.628 2.475 2.002 0.618 0.34371 0.28659 317 
3.9500 88.427 12.934 51.581 3.741 2.538 2.032 0.624 0.34184 0.27112 321 
4.0000 91.474 12.542 52.991 3.868 2.594 2.065 0.628 0.33855 0.25519 325 
4.0500 87.983 12.256 54.743 3.977 2.675 2.094 0.639 0.33879 0.23949 328 
4.1000 88.941 11.911 56.434 4.106 2.743 2.127 0.645 0.33653 0.22330 333 
4.1500 89.804 11.599 58.499 4.239 2.830 2.161 0.655 0.33586 0.20582 336 
4.2000 91.464 11.269 61.212 4.399 2.948 2.202 0.669 0.33592 0.18459 338 
4.2500 88.441 11.079 64.320 4.538 3.100 2.240 0.692 0.33991 0.16344 339 
4.3000 89.776 11.010 68.178 4.674 3.314 2.281 0.726 0.34808 0.13938 343 
4.3500 88.962 11.190 71.762 4.737 3.559 2.309 0.771 0.36162 0.11916 347 
4.4000 88.477 11.466 74.845 4.763 3.803 2.330 0.816 0.37607 0.10186 352 
4.4500 88.863 11.833 77.836 4.764 4.073 2.349 0.867 0.39239 0.08458 360 
4.5000 89.191 12.254 79.467 4.693 4.274 2.350 0.910 0.40782 0.07583 369 
4.5500 89.068 12.799 81.065 4.578 4.506 2.345 0.961 0.42682 0.06710 378 
4.6000 88.225 13.260 81.900 4.454 4.667 2.335 0.999 0.44205 0.06291 389 
4.6500 86.442 13.797 82.475 4.287 4.823 2.317 1.041 0.45921 0.06066 400 
4.7000 89.738 14.212 82.755 4.148 4.927 2.301 1.071 0.47219 0.06003 412 
4.7500 90.245 14.645 82.913 3.995 5.020 2.282 1.100 0.48550 0.06036 424 
4.8000 88.971 15.035 82.915 3.849 5.088 2.262 1.125 0.49722 0.06180 435 
4.8500 88.407 15.392 82.906 3.714 5.146 2.243 1.147 0.50788 0.06321 447 
4.9000 87.916 15.743 82.664 3.571 5.176 2.220 1.166 0.51803 0.06669 459 
4.9500 87.552 16.008 82.327 3.458 5.180 2.201 1.177 0.52542 0.07079 473 
5.0000 92.541 16.233 82.008 3.361 5.177 2.183 1.186 0.53157 0.07464 491 

# MINIMA:
1.50 86.442 11.010 43.152 -4.434 2.094 1.415 0.609 0.33586 -0.38881 258 

# MAXIMA:
5.00 92.541 29.338 117.342 4.764 14.286 2.350 3.084 0.83031 0.47865 491 

# PEAKS:

# END SPECTRUM

