## SPECTRUM TYPE:
Spectroscopic measurement

## DATE:
14/Jan/1980

## COMMENTS:

## NUMBER OF SPECTRUM:
1

## ELLIPSOMETRIC CONFIGURATION:
  0 ø : Modulator
+45 ø : Analyser

## UNIT:
eV


# SPECTRUM:
1

# START TIME:
16:00:38

# END TIME:
16:03:42

# INCIDENCE ANGLE:
70.00 ø

# ACCUMULATION NUMBER:
1

# INTEGRATION TIME:
200 ms

# FIRST POINT:
1.5000 eV

# LAST POINT:
5.0000 eV

# INCREMENT:
0.050000 eV

# NUMBER OF POINTS:
71

# DATA:
eV S0 Psi Delta îr îi n k Is Ic Hv 
1.5000 93.695 30.068 103.685 -3.991 8.854 1.691 2.618 0.84259 -0.20517 362 
1.5500 91.330 30.189 101.476 -3.809 8.207 1.618 2.535 0.85193 -0.17295 414 
1.6000 94.066 30.444 99.237 -3.688 7.566 1.538 2.460 0.86234 -0.14023 448 
1.6500 84.193 30.173 96.947 -3.273 7.105 1.508 2.355 0.86265 -0.10511 414 
1.7000 87.685 30.320 94.721 -3.094 6.589 1.447 2.277 0.86860 -0.07173 400 
1.7500 86.634 30.178 92.451 -2.779 6.176 1.413 2.185 0.86832 -0.03716 383 
1.8000 86.888 29.925 90.127 -2.432 5.812 1.391 2.090 0.86471 -0.00191 360 
1.8500 88.632 29.659 87.733 -2.097 5.467 1.371 1.994 0.85934 0.03402 356 
1.9000 87.258 29.515 85.362 -1.831 5.127 1.344 1.907 0.85463 0.06934 346 
1.9500 87.313 29.215 83.090 -1.537 4.857 1.334 1.821 0.84581 0.10251 338 
2.0000 88.542 29.064 80.864 -1.312 4.583 1.314 1.743 0.83845 0.13484 330 
2.0500 89.519 28.805 78.607 -1.067 4.342 1.305 1.664 0.82778 0.16680 326 
2.1000 89.214 28.470 76.280 -0.811 4.120 1.302 1.583 0.81418 0.19878 320 
2.1500 88.196 27.993 73.992 -0.539 3.936 1.310 1.502 0.79676 0.22858 316 
2.2000 88.060 27.664 71.817 -0.328 3.752 1.311 1.431 0.78135 0.25664 314 
2.2500 86.906 27.294 69.754 -0.126 3.594 1.317 1.364 0.76465 0.28204 311 
2.3000 91.033 26.834 67.621 0.087 3.446 1.329 1.296 0.74492 0.30672 311 
2.3500 88.998 26.384 65.590 0.281 3.311 1.342 1.233 0.72502 0.32903 307 
2.4000 90.008 25.844 63.621 0.481 3.194 1.362 1.173 0.70295 0.34863 308 
2.4500 88.345 25.383 61.652 0.653 3.072 1.377 1.115 0.68168 0.36779 298 
2.5000 88.563 24.784 59.841 0.839 2.978 1.402 1.062 0.65813 0.38241 290 
2.5500 89.774 24.172 58.083 1.019 2.888 1.428 1.011 0.63419 0.39500 291 
2.6000 89.065 23.504 56.431 1.199 2.809 1.458 0.963 0.60946 0.40445 290 
2.6500 86.853 22.815 55.146 1.370 2.756 1.491 0.924 0.58661 0.40852 281 
2.7000 90.754 22.168 53.955 1.527 2.705 1.522 0.889 0.56507 0.41122 292 
2.7500 86.403 21.439 53.178 1.691 2.685 1.560 0.861 0.54469 0.40780 291 
2.8000 88.434 20.819 52.648 1.830 2.673 1.592 0.839 0.52816 0.40312 296 
2.8500 89.305 20.207 52.403 1.964 2.677 1.625 0.823 0.51366 0.39553 297 
2.9000 91.391 19.658 52.424 2.084 2.695 1.657 0.813 0.50216 0.38637 298 
2.9500 88.066 19.210 52.611 2.183 2.718 1.684 0.807 0.49375 0.37735 296 
3.0000 87.652 18.870 52.820 2.259 2.740 1.705 0.804 0.48767 0.36990 298 
3.0500 88.985 18.555 53.106 2.331 2.765 1.724 0.802 0.48252 0.36220 301 
3.1000 87.915 18.248 53.088 2.403 2.767 1.742 0.794 0.47554 0.35721 301 
3.1500 88.899 18.094 53.241 2.439 2.779 1.752 0.793 0.47304 0.35335 306 
3.2000 87.771 17.923 53.219 2.480 2.778 1.761 0.789 0.46903 0.35063 312 
3.2500 89.168 17.647 53.108 2.546 2.772 1.776 0.780 0.46208 0.34684 321 
3.3000 89.109 17.436 53.014 2.597 2.765 1.788 0.773 0.45670 0.34398 332 
3.3500 88.210 17.145 52.874 2.668 2.755 1.803 0.764 0.44918 0.34003 329 
3.4000 88.396 16.869 52.983 2.736 2.761 1.820 0.759 0.44346 0.33438 321 
3.4500 86.914 16.559 53.315 2.813 2.781 1.840 0.756 0.43815 0.32641 316 
3.5000 91.121 16.306 53.743 2.879 2.806 1.857 0.755 0.43458 0.31873 319 
3.5500 88.733 16.123 54.264 2.928 2.838 1.872 0.758 0.43309 0.31162 320 
3.6000 88.749 15.938 54.899 2.979 2.878 1.887 0.763 0.43204 0.30365 322 
3.6500 86.929 15.782 55.581 3.025 2.921 1.901 0.768 0.43180 0.29587 323 
3.7000 90.509 15.628 56.202 3.070 2.959 1.915 0.773 0.43119 0.28863 326 
3.7500 88.028 15.509 57.028 3.109 3.013 1.929 0.781 0.43230 0.28044 330 
3.8000 90.459 15.405 57.698 3.144 3.055 1.940 0.787 0.43293 0.27371 336 
3.8500 87.401 15.343 58.298 3.167 3.095 1.949 0.794 0.43419 0.26818 340 
3.9000 87.230 15.311 59.146 3.185 3.154 1.958 0.805 0.43728 0.26122 345 
3.9500 88.013 15.338 59.816 3.185 3.203 1.962 0.816 0.44102 0.25651 350 
4.0000 88.252 15.279 60.556 3.211 3.253 1.972 0.825 0.44273 0.24992 355 
4.0500 92.155 15.333 61.116 3.202 3.297 1.975 0.835 0.44658 0.24636 361 
4.1000 86.701 15.310 61.712 3.216 3.339 1.981 0.843 0.44852 0.24138 363 
4.1500 88.726 15.362 62.323 3.209 3.387 1.984 0.853 0.45244 0.23731 368 
4.2000 87.705 15.380 62.886 3.212 3.430 1.989 0.862 0.45524 0.23310 370 
4.2500 88.105 15.483 63.408 3.189 3.475 1.988 0.874 0.46010 0.23032 373 
4.3000 88.183 15.508 64.021 3.190 3.523 1.993 0.884 0.46321 0.22571 378 
4.3500 90.063 15.627 64.302 3.159 3.551 1.989 0.893 0.46751 0.22497 384 
4.4000 88.060 15.679 64.653 3.148 3.581 1.989 0.900 0.47030 0.22278 389 
4.4500 86.858 15.731 65.100 3.139 3.618 1.991 0.909 0.47342 0.21976 396 
4.5000 88.104 15.788 65.323 3.125 3.639 1.990 0.914 0.47581 0.21861 406 
4.5500 87.669 15.893 65.772 3.100 3.680 1.989 0.925 0.48034 0.21616 416 
4.6000 87.648 15.963 66.085 3.083 3.709 1.988 0.933 0.48343 0.21437 427 
4.6500 86.926 15.981 66.512 3.083 3.744 1.992 0.940 0.48550 0.21099 438 
4.7000 87.729 16.141 67.144 3.044 3.805 1.989 0.956 0.49214 0.20744 451 
4.7500 86.754 16.212 67.375 3.025 3.827 1.988 0.963 0.49492 0.20627 463 
4.8000 87.316 16.326 67.827 2.996 3.871 1.986 0.974 0.49963 0.20362 476 
4.8500 86.377 16.331 68.343 3.002 3.915 1.992 0.983 0.50159 0.19917 489 
4.9000 86.032 16.650 68.765 2.908 3.967 1.978 1.003 0.51174 0.19885 504 
4.9500 81.642 16.812 68.949 2.860 3.991 1.971 1.012 0.51679 0.19890 517 
5.0000 82.027 16.877 69.104 2.841 4.008 1.969 1.018 0.51909 0.19818 535 

# MINIMA:
1.50 81.642 15.279 52.403 -3.991 2.673 1.302 0.755 0.43119 -0.20517 281 

# MAXIMA:
5.00 94.066 30.444 103.685 3.216 8.854 1.993 2.618 0.86860 0.41122 535 

# PEAKS:

# END SPECTRUM

