## SPECTRUM TYPE:
Spectroscopic measurement

## DATE:
14/Jan/1980

## COMMENTS:

## NUMBER OF SPECTRUM:
1

## ELLIPSOMETRIC CONFIGURATION:
  0 ø : Modulator
+45 ø : Analyser

## UNIT:
eV


# SPECTRUM:
1

# START TIME:
16:06:15

# END TIME:
16:09:19

# INCIDENCE ANGLE:
70.00 ø

# ACCUMULATION NUMBER:
1

# INTEGRATION TIME:
200 ms

# FIRST POINT:
1.5000 eV

# LAST POINT:
5.0000 eV

# INCREMENT:
0.050000 eV

# NUMBER OF POINTS:
71

# DATA:
eV S0 Psi Delta îr îi n k Is Ic Hv 
1.5000 91.748 29.866 100.121 -3.460 7.941 1.613 2.462 0.85023 -0.15177 339 
1.5500 92.694 30.134 98.012 -3.374 7.358 1.536 2.395 0.85988 -0.12103 391 
1.6000 89.478 30.044 95.820 -3.083 6.891 1.494 2.306 0.86233 -0.08789 423 
1.6500 86.999 29.884 93.719 -2.781 6.495 1.464 2.219 0.86217 -0.05604 396 
1.7000 90.121 29.891 91.507 -2.557 6.068 1.419 2.138 0.86382 -0.02272 386 
1.7500 88.318 29.746 89.254 -2.275 5.702 1.390 2.051 0.86149 0.01121 367 
1.8000 77.027 29.455 86.999 -1.954 5.393 1.375 1.961 0.85519 0.04484 348 
1.8500 88.774 29.399 84.981 -1.757 5.094 1.347 1.890 0.85206 0.07483 341 
1.9000 93.624 29.192 82.623 -1.492 4.796 1.329 1.805 0.84453 0.10935 335 
1.9500 87.484 29.075 80.450 -1.284 4.527 1.308 1.731 0.83767 0.14093 325 
2.0000 89.319 28.772 78.316 -1.036 4.312 1.304 1.654 0.82631 0.17088 318 
2.0500 87.202 28.438 76.083 -0.790 4.103 1.302 1.576 0.81290 0.20143 313 
2.1000 88.101 28.202 73.958 -0.591 3.902 1.295 1.506 0.80052 0.23019 308 
2.1500 86.177 27.840 71.764 -0.369 3.723 1.299 1.434 0.78443 0.25845 303 
2.2000 90.158 27.447 69.658 -0.158 3.565 1.306 1.365 0.76707 0.28439 302 
2.2500 87.208 27.168 67.736 0.005 3.417 1.308 1.306 0.75187 0.30781 299 
2.3000 87.630 26.639 65.778 0.216 3.300 1.327 1.243 0.73098 0.32886 298 
2.3500 87.836 26.254 63.907 0.380 3.177 1.338 1.187 0.71256 0.34898 293 
2.4000 88.829 25.733 62.110 0.562 3.078 1.358 1.133 0.69139 0.36592 293 
2.4500 86.456 25.239 60.338 0.728 2.979 1.377 1.081 0.67029 0.38173 282 
2.5000 88.171 24.780 58.691 0.876 2.887 1.395 1.035 0.65026 0.39551 277 
2.5500 89.002 24.242 57.241 1.028 2.818 1.419 0.993 0.62968 0.40516 278 
2.6000 89.196 23.788 55.701 1.160 2.735 1.437 0.952 0.60982 0.41597 277 
2.6500 88.478 23.186 54.505 1.309 2.687 1.466 0.917 0.58932 0.42028 270 
2.7000 88.635 22.677 53.287 1.436 2.630 1.489 0.883 0.57033 0.42531 278 
2.7500 87.740 22.131 52.391 1.562 2.596 1.515 0.857 0.55291 0.42593 278 
2.8000 90.017 21.535 51.457 1.698 2.560 1.544 0.829 0.53412 0.42552 283 
2.8500 89.864 20.942 50.837 1.827 2.542 1.575 0.807 0.51764 0.42162 284 
2.9000 88.268 20.448 50.377 1.935 2.529 1.600 0.790 0.50428 0.41752 284 
2.9500 87.091 19.900 50.153 2.052 2.531 1.629 0.777 0.49145 0.41015 283 
3.0000 89.216 19.418 49.992 2.156 2.533 1.656 0.765 0.48034 0.40316 285 
3.0500 88.766 19.026 50.035 2.241 2.545 1.678 0.758 0.47242 0.39592 287 
3.1000 87.619 18.661 50.024 2.321 2.551 1.699 0.751 0.46460 0.38952 287 
3.1500 90.735 18.256 50.335 2.410 2.578 1.723 0.748 0.45803 0.37978 292 
3.2000 91.672 17.910 50.677 2.488 2.604 1.745 0.746 0.45274 0.37087 298 
3.2500 88.937 17.665 51.128 2.544 2.636 1.762 0.748 0.45023 0.36293 305 
3.3000 89.588 17.426 51.592 2.600 2.668 1.778 0.750 0.44780 0.35502 316 
3.3500 86.454 17.219 52.055 2.649 2.699 1.793 0.753 0.44597 0.34774 311 
3.4000 90.050 17.046 52.587 2.692 2.735 1.807 0.757 0.44521 0.34055 304 
3.4500 89.966 16.876 53.124 2.734 2.771 1.820 0.761 0.44444 0.33341 300 
3.5000 89.330 16.749 53.636 2.767 2.805 1.831 0.766 0.44444 0.32724 301 
3.5500 89.181 16.664 54.123 2.790 2.837 1.840 0.771 0.44519 0.32200 303 
3.6000 86.026 16.519 54.712 2.829 2.876 1.852 0.776 0.44502 0.31495 304 
3.6500 89.719 16.483 55.187 2.840 2.909 1.858 0.783 0.44675 0.31065 307 
3.7000 87.168 16.369 55.699 2.872 2.943 1.869 0.787 0.44674 0.30476 308 
3.7500 88.774 16.347 56.193 2.880 2.977 1.874 0.794 0.44883 0.30054 313 
3.8000 88.849 16.267 56.711 2.904 3.012 1.883 0.800 0.44955 0.29517 317 
3.8500 89.809 16.197 57.244 2.926 3.048 1.891 0.806 0.45055 0.28986 322 
3.9000 87.233 16.204 57.716 2.927 3.082 1.895 0.813 0.45310 0.28626 326 
3.9500 89.598 16.154 58.207 2.944 3.116 1.902 0.819 0.45429 0.28159 331 
4.0000 87.413 16.170 58.846 2.945 3.163 1.906 0.830 0.45780 0.27675 335 
4.0500 88.649 16.157 59.238 2.952 3.192 1.910 0.835 0.45935 0.27341 340 
4.1000 87.806 16.214 59.667 2.939 3.225 1.911 0.844 0.46283 0.27082 344 
4.1500 89.384 16.210 60.222 2.945 3.266 1.916 0.852 0.46533 0.26626 348 
4.2000 88.266 16.177 60.605 2.958 3.293 1.921 0.857 0.46625 0.26267 349 
4.2500 88.719 16.232 61.117 2.947 3.334 1.923 0.867 0.47000 0.25927 351 
4.3000 86.585 16.303 61.640 2.932 3.376 1.924 0.877 0.47418 0.25596 354 
4.3500 89.036 16.304 62.193 2.936 3.418 1.929 0.886 0.47665 0.25139 360 
4.4000 87.784 16.375 62.478 2.919 3.443 1.928 0.893 0.47976 0.24998 365 
4.4500 90.230 16.485 62.767 2.890 3.469 1.924 0.901 0.48389 0.24904 373 
4.5000 88.663 16.561 63.377 2.874 3.519 1.926 0.914 0.48850 0.24486 381 
4.5500 88.747 16.635 63.720 2.855 3.549 1.925 0.922 0.49189 0.24289 390 
4.6000 87.954 16.681 64.124 2.846 3.583 1.926 0.930 0.49479 0.23999 400 
4.6500 85.046 16.797 64.749 2.818 3.637 1.926 0.944 0.50043 0.23602 409 
4.7000 87.524 16.870 64.936 2.798 3.655 1.924 0.950 0.50312 0.23529 421 
4.7500 87.211 16.996 65.409 2.765 3.698 1.921 0.962 0.50836 0.23265 432 
4.8000 87.937 17.126 65.719 2.729 3.728 1.917 0.972 0.51304 0.23144 444 
4.8500 86.482 17.288 65.928 2.683 3.750 1.910 0.982 0.51815 0.23148 455 
4.9000 85.111 17.466 66.244 2.632 3.782 1.903 0.994 0.52409 0.23067 468 
4.9500 84.687 17.541 66.765 2.614 3.829 1.904 1.005 0.52813 0.22674 482 
5.0000 84.814 17.721 66.960 2.561 3.850 1.895 1.016 0.53362 0.22695 499 

# MINIMA:
1.50 77.027 16.154 49.992 -3.460 2.529 1.295 0.746 0.44444 -0.15177 270 

# MAXIMA:
5.00 93.624 30.134 100.121 2.958 7.941 1.929 2.462 0.86382 0.42593 499 

# PEAKS:

# END SPECTRUM

